   Distance (km) Seafloor depth (m)
  -1.0005010e+03   9.3722240e+01
  -9.7854115e+02   9.3573406e+01
  -9.6601812e+02   9.3422872e+01
  -9.4844414e+02   9.3270301e+01
  -9.3964096e+02   9.3115334e+01
  -9.1652682e+02   9.2957618e+01
  -9.0053725e+02   9.2796818e+01
  -8.7892423e+02   9.2632634e+01
  -8.6200940e+02   9.2464800e+01
  -8.4532259e+02   9.2293095e+01
  -8.3165199e+02   9.2117368e+01
  -8.1708540e+02   9.1937568e+01
  -7.9563717e+02   9.1753796e+01
  -7.7256071e+02   9.1566350e+01
  -7.5544312e+02   9.1375769e+01
  -7.3942294e+02   9.1182805e+01
  -7.2081029e+02   9.0988308e+01
  -7.0215734e+02   9.0793131e+01
  -6.8273020e+02   9.0597784e+01
  -6.6223544e+02   9.0401270e+01
  -6.4866602e+02   9.0198013e+01
  -6.3566891e+02   8.9921015e+01
  -6.2165253e+02   8.9641077e+01
  -6.0683416e+02   8.9363517e+01
  -5.9011223e+02   8.9091284e+01
  -5.7248346e+02   8.8825483e+01
  -5.5517808e+02   8.8567001e+01
  -5.3480007e+02   8.8318630e+01
  -5.1899483e+02   8.8087032e+01
  -5.0294313e+02   8.7883018e+01
  -4.9051642e+02   8.7719355e+01
  -4.7443694e+02   8.7607049e+01
  -4.5328824e+02   8.7552212e+01
  -4.3853068e+02   8.7554102e+01
  -4.2404589e+02   8.7603451e+01
  -4.0685430e+02   8.7688874e+01
  -3.9225458e+02   8.7802804e+01
  -3.7314988e+02   8.7939711e+01
  -3.5989802e+02   8.8094682e+01
  -3.4692720e+02   8.8264052e+01
  -3.2973880e+02   8.8445106e+01
  -3.1297188e+02   8.8635838e+01
  -2.8905674e+02   8.8834946e+01
  -2.7291388e+02   8.9041110e+01
  -2.6026340e+02   8.9252723e+01
  -2.4366660e+02   8.9468343e+01
  -2.2975476e+02   8.9685800e+01
  -2.1341117e+02   8.9901633e+01
  -1.9498103e+02   9.0112013e+01
  -1.7989016e+02   9.0314086e+01
  -1.5728186e+02   9.0505990e+01
  -1.3652871e+02   9.0685938e+01
  -1.1657103e+02   9.0852135e+01
  -1.0232707e+02   9.1003261e+01
  -8.1861454e+01   9.1131399e+01
  -5.6119173e+01   9.1251225e+01
  -3.5138313e+01   9.1338844e+01
  -1.6304944e+01   9.1402169e+01
   2.9860509e-01   9.1438016e+01
   1.5648613e+01   9.1442915e+01
   3.1558717e+01   9.1407838e+01
   4.9975677e+01   9.1316087e+01
   6.3997973e+01   9.1154290e+01
   7.7771645e+01   9.0936600e+01
   9.3571290e+01   9.0698959e+01
   1.1080114e+02   9.0463601e+01
   1.2519997e+02   9.0231408e+01
   1.4090858e+02   8.9995742e+01
   1.5389689e+02   8.9751619e+01
   1.7270924e+02   8.9498467e+01
   1.8348246e+02   8.9240485e+01
   2.0194851e+02   8.8987376e+01
   2.2248374e+02   8.8754922e+01
   2.4338085e+02   8.8563557e+01
   2.5708700e+02   8.8433547e+01
   2.7204759e+02   8.8380315e+01
   2.8695421e+02   8.8410023e+01
   2.9986447e+02   8.8515990e+01
   3.1565591e+02   8.8678524e+01
   3.3614463e+02   8.8870612e+01
   3.5146780e+02   8.9067906e+01
   3.6713556e+02   8.9255926e+01
   3.8947543e+02   8.9430716e+01
   4.1101771e+02   8.9595876e+01
   4.3034268e+02   8.9757694e+01
   4.4296088e+02   8.9921788e+01
   4.5699202e+02   9.0092014e+01
   4.7373769e+02   9.0269196e+01
   4.8881042e+02   9.0446835e+01
   5.0555492e+02   9.0609208e+01
   5.2709269e+02   9.0739896e+01
   5.4116668e+02   9.0825885e+01
   5.5813248e+02   9.0896071e+01
   5.7543252e+02   9.0935290e+01
   5.9813667e+02   9.0946832e+01
   6.1846167e+02   9.0929016e+01
   6.3698147e+02   9.0874041e+01
   6.5807191e+02   9.0778173e+01
   6.7599182e+02   9.0653748e+01
   6.9259048e+02   9.0524910e+01
   7.1195257e+02   9.0411516e+01
   7.2982062e+02   9.0322189e+01
   7.4539696e+02   9.0257595e+01
   7.6236317e+02   9.0215376e+01
   7.8284960e+02   9.0192596e+01
   7.9604013e+02   9.0187795e+01
   8.1338696e+02   9.0202856e+01
   8.3045462e+02   9.0243417e+01
   8.4927359e+02   9.0317072e+01
   8.6962982e+02   9.0429260e+01
   8.9088837e+02   9.0580204e+01
   9.0753369e+02   9.0773189e+01
   9.2214746e+02   9.1013869e+01
   9.4113879e+02   9.1302692e+01
   9.6418708e+02   9.1628988e+01
   9.8197622e+02   9.1968965e+01
   9.9996694e+02   9.2292459e+01
   1.0189843e+03   9.2575669e+01
   1.0324421e+03   9.2809336e+01
   1.0548018e+03   9.2996291e+01
   1.0707134e+03   9.3144488e+01
   1.0885704e+03   9.3261685e+01
   1.1140047e+03   9.3352783e+01
   1.1291710e+03   9.3418830e+01
   1.1475136e+03   9.3457146e+01
   1.1664525e+03   9.3463753e+01
   1.1894740e+03   9.3437027e+01
   1.2034528e+03   9.3381451e+01
   1.2251643e+03   9.3308735e+01
   1.2383396e+03   9.3230801e+01
   1.2536918e+03   9.3150586e+01
   1.2740878e+03   9.3063476e+01
   1.2887344e+03   9.2964170e+01
   1.3068196e+03   9.2811707e+01
   1.3247910e+03   9.2651910e+01
   1.3423135e+03   9.2532724e+01
   1.3617727e+03   9.2406547e+01
   1.3839536e+03   9.2265681e+01
   1.4068618e+03   9.2100555e+01
   1.4290620e+03   9.1903296e+01
   1.4497493e+03   9.1669711e+01
   1.4694679e+03   9.1399334e+01
   1.4920700e+03   9.1093825e+01
   1.5172174e+03   9.0755440e+01
   1.5360199e+03   9.0387966e+01
   1.5609701e+03   8.9999559e+01
   1.5793091e+03   8.9603283e+01
   1.6051662e+03   8.9213990e+01
   1.6271472e+03   8.8842936e+01
   1.6533514e+03   8.8496125e+01
   1.6755379e+03   8.8178893e+01
   1.6953121e+03   8.7903446e+01
   1.7082024e+03   8.7681277e+01
   1.7237013e+03   8.7519084e+01
   1.7470618e+03   8.7419979e+01
   1.7678875e+03   8.7383955e+01
   1.7803294e+03   8.7408391e+01
   1.7983523e+03   8.7488740e+01
   1.8154140e+03   8.7618694e+01
   1.8371808e+03   8.7790541e+01
   1.8489677e+03   8.7995935e+01
   1.8633804e+03   8.8227371e+01
   1.8792401e+03   8.8478374e+01
   1.8943537e+03   8.8742516e+01
   1.9078672e+03   8.9012039e+01
   1.9249135e+03   8.9277303e+01
   1.9425446e+03   8.9527260e+01
   1.9581927e+03   8.9752644e+01
   1.9739252e+03   8.9949098e+01
   1.9901824e+03   9.0117409e+01
   2.0016935e+03   9.0260176e+01
   2.0165082e+03   9.0378186e+01
   2.0350715e+03   9.0470474e+01
   2.0522827e+03   9.0535511e+01
   2.0657199e+03   9.0572035e+01
   2.0860140e+03   9.0580309e+01
   2.1062034e+03   9.0562453e+01
   2.1244799e+03   9.0521550e+01
   2.1448708e+03   9.0460434e+01
   2.1666479e+03   9.0380840e+01
   2.1887414e+03   9.0283182e+01
   2.2065508e+03   9.0166104e+01
   2.2300450e+03   9.0026212e+01
   2.2509913e+03   8.9858109e+01
   2.2753809e+03   8.9661217e+01
   2.2908120e+03   8.9447266e+01
   2.3079549e+03   8.9235397e+01
   2.3250783e+03   8.9040553e+01
   2.3463908e+03   8.8870493e+01
   2.3715803e+03   8.8729874e+01
   2.3873217e+03   8.8623343e+01
   2.4069714e+03   8.8556717e+01
   2.4212973e+03   8.8536943e+01
   2.4394466e+03   8.8571076e+01
   2.4536122e+03   8.8664765e+01
   2.4697657e+03   8.8821597e+01
   2.4904532e+03   8.9043523e+01
   2.5111745e+03   8.9329530e+01
   2.5350689e+03   8.9673082e+01
   2.5533938e+03   9.0061926e+01
   2.5684596e+03   9.0478915e+01
   2.5851769e+03   9.0905301e+01
   2.6024060e+03   9.1324735e+01
   2.6180070e+03   9.1725665e+01
   2.6395142e+03   9.2102589e+01
   2.6557825e+03   9.2455366e+01
   2.6797893e+03   9.2785965e+01
   2.6953407e+03   9.3094378e+01
   2.7154785e+03   9.3374833e+01
   2.7382440e+03   9.3614460e+01
   2.7544527e+03   9.3799252e+01
   2.7824794e+03   9.3923094e+01
   2.7981144e+03   9.3993444e+01
   2.8171478e+03   9.4028107e+01
   2.8338353e+03   9.4044429e+01
   2.8563363e+03   9.4053722e+01
   2.8783518e+03   9.4064085e+01
   2.8998994e+03   9.4084001e+01
   2.9179220e+03   9.4121936e+01
   2.9412733e+03   9.4185325e+01
   2.9581051e+03   9.4279231e+01
   2.9772669e+03   9.4405443e+01
   3.0005450e+03   9.4560416e+01
   3.0201056e+03   9.4736953e+01
   3.0404558e+03   9.4929051e+01
   3.0536612e+03   9.5135979e+01
   3.0716565e+03   9.5359031e+01
   3.0908956e+03   9.5593198e+01
   3.1085699e+03   9.5823923e+01
   3.1276966e+03   9.6033176e+01
   3.1558579e+03   9.6207948e+01
   3.1910337e+03   9.6343597e+01
   3.2171826e+03   9.6443084e+01
   3.2418271e+03   9.6512930e+01
   3.2634628e+03   9.6556858e+01
   3.2869620e+03   9.6573851e+01
   3.3092384e+03   9.6559816e+01
   3.3324958e+03   9.6510535e+01
   3.3548172e+03   9.6425569e+01
   3.3767342e+03   9.6309933e+01
   3.3920931e+03   9.6172850e+01
   3.4104896e+03   9.6024485e+01
   3.4304492e+03   9.5873017e+01
   3.4468177e+03   9.5725465e+01
   3.4662217e+03   9.5589128e+01
   3.4868441e+03   9.5471934e+01
   3.5073090e+03   9.5377826e+01
   3.5248845e+03   9.5302845e+01
   3.5440297e+03   9.5250419e+01
   3.5619966e+03   9.5188622e+01
   3.5827858e+03   9.5115400e+01
   3.6044637e+03   9.5039691e+01
   3.6228472e+03   9.4958127e+01
   3.6386692e+03   9.4864130e+01
   3.6557814e+03   9.4751173e+01
   3.6739707e+03   9.4618461e+01
   3.6964059e+03   9.4470394e+01
   3.7166508e+03   9.4311750e+01
   3.7476228e+03   9.4146085e+01
   3.7702422e+03   9.3976664e+01
   3.7845651e+03   9.3807399e+01
   3.8031126e+03   9.3642549e+01
   3.8193350e+03   9.3484778e+01
   3.8382523e+03   9.3334864e+01
   3.8533157e+03   9.3192595e+01
   3.8707699e+03   9.3057684e+01
   3.8897668e+03   9.2928175e+01
   3.9118509e+03   9.2800805e+01
   3.9308102e+03   9.2673493e+01
   3.9466619e+03   9.2545379e+01
   3.9653750e+03   9.2414206e+01
   3.9845097e+03   9.2274434e+01
   4.0049246e+03   9.2119589e+01
   4.0246315e+03   9.1947144e+01
   4.0497404e+03   9.1759935e+01
   4.0731870e+03   9.1564098e+01
   4.0906406e+03   9.1366541e+01
   4.1123261e+03   9.1172811e+01
   4.1382120e+03   9.0986356e+01
   4.1583349e+03   9.0808335e+01
   4.1737739e+03   9.0637505e+01
   4.1938950e+03   9.0470995e+01
   4.2083883e+03   9.0307516e+01
   4.2215293e+03   9.0153636e+01
   4.2405939e+03   9.0024715e+01
   4.2605138e+03   8.9934687e+01
   4.2776390e+03   8.9884814e+01
   4.2908619e+03   8.9866227e+01
   4.3089263e+03   8.9869834e+01
   4.3263655e+03   8.9890801e+01
   4.3388561e+03   8.9900223e+01
   4.3550437e+03   8.9960278e+01
   4.3694159e+03   9.0061635e+01
   4.3859186e+03   9.0168554e+01
   4.4023927e+03   9.0276387e+01
   4.4263585e+03   9.0383132e+01
   4.4471182e+03   9.0486665e+01
   4.4672183e+03   9.0583552e+01
   4.4878340e+03   9.0669767e+01
   4.5088917e+03   9.0740489e+01
   4.5285768e+03   9.0791795e+01
   4.5474937e+03   9.0823686e+01
   4.5717260e+03   9.0840127e+01
   4.6027259e+03   9.0846229e+01
   4.6224086e+03   9.0845524e+01
   4.6411637e+03   9.0840271e+01
   4.6645068e+03   9.0833265e+01
   4.6804087e+03   9.0828980e+01
   4.7003203e+03   9.0833149e+01
   4.7155055e+03   9.0851283e+01
   4.7322206e+03   9.0887378e+01
   4.7468180e+03   9.0943207e+01
   4.7660770e+03   9.1019310e+01
   4.7859634e+03   9.1116298e+01
   4.8028435e+03   9.1234875e+01
   4.8204579e+03   9.1375737e+01
   4.8356885e+03   9.1539677e+01
   4.8574115e+03   9.1727557e+01
   4.8769508e+03   9.1939132e+01
   4.9012615e+03   9.2172643e+01
   4.9261078e+03   9.2424612e+01
   4.9519563e+03   9.2690125e+01
   4.9724935e+03   9.2962980e+01
   4.9895340e+03   9.3236189e+01
   5.0047484e+03   9.3502858e+01
   5.0274190e+03   9.3757138e+01
   5.0502932e+03   9.3992785e+01
   5.0722271e+03   9.4202707e+01
   5.1076889e+03   9.4379954e+01
   5.1342478e+03   9.4519080e+01
   5.1605094e+03   9.4566413e+01
   5.1777788e+03   9.4586914e+01
   5.2004700e+03   9.4591355e+01
   5.2213797e+03   9.4581034e+01
   5.2490329e+03   9.4554888e+01
   5.2699951e+03   9.4511639e+01
   5.2940514e+03   9.4450221e+01
   5.3125605e+03   9.4369858e+01
   5.3324323e+03   9.4270026e+01
   5.3590641e+03   9.4150430e+01
   5.3812384e+03   9.4010974e+01
   5.3976687e+03   9.3851726e+01
   5.4128429e+03   9.3672897e+01
   5.4315909e+03   9.3474807e+01
   5.4539641e+03   9.3257873e+01
   5.4763026e+03   9.3022580e+01
   5.4925312e+03   9.2769470e+01
   5.5076926e+03   9.2499123e+01
   5.5382223e+03   9.2212129e+01
   5.5663644e+03   9.1909046e+01
