   Distance (km) Seafloor depth (m)
   0.0000000e+00   6.7935208e+01
   1.1167741e+02   6.7389750e+01
   2.2520002e+02   6.7395062e+01
   3.3898072e+02   6.7986833e+01
   4.5538143e+02   6.9135899e+01
   5.7035156e+02   7.0732030e+01
   6.8534621e+02   7.3880084e+01
   7.8663377e+02   7.6835351e+01
   8.9778743e+02   7.8727999e+01
   1.0092617e+03   7.9222149e+01
   1.1203250e+03   8.0268948e+01
   1.2297255e+03   8.1968190e+01
   1.3396038e+03   8.3749578e+01
   1.4473365e+03   8.5268816e+01
   1.5582354e+03   8.5774170e+01
   1.6639866e+03   8.6044853e+01
   1.7703327e+03   8.6280665e+01
   1.8806099e+03   8.5528110e+01
   1.9905178e+03   8.3004862e+01
   2.0977387e+03   7.9076252e+01
   2.2040934e+03   7.4717937e+01
   2.3059586e+03   7.2012541e+01
   2.4105156e+03   7.0122719e+01
   2.5119324e+03   6.8921099e+01
   2.6153199e+03   6.8471909e+01
   2.7140217e+03   6.8756011e+01
